0.0, 0.0
0.29227974143512114, 8.881118881118881e-05
0.5845594828702423, 0.00017925407925407927
0.8768392243053634, 0.00025454545454545456
1.1691189657404846, 0.00032727272727272726
1.4613987071756056, 0.00040489510489510487
1.7536784486107269, 0.0004892773892773893
2.045958190045848, 0.0005771561771561772
2.338237931480969, 0.0006596736596736597
2.63051767291609, 0.0007442890442890443
2.922797414351211, 0.0008167832167832168
3.2150771557863327, 0.000903030303030303
3.5073568972214537, 0.0009834498834498835
3.7996366386565747, 0.0010587412587412586
4.091916380091696, 0.001134032634032634
4.384196121526817, 0.0012102564102564103
4.676475862961938, 0.0012904428904428904
4.968755604397059, 0.0013713286713286713
5.26103534583218, 0.0014533799533799534
5.553315087267301, 0.001534032634032634
5.845594828702422, 0.0016165501165501166
6.137874570137544, 0.0016967365967365967
6.430154311572665, 0.0017757575757575757
6.722434053007786, 0.0018561771561771561
7.014713794442907, 0.0019286713286713287
7.3069935358780285, 0.0020060606060606063
7.5992732773131495, 0.002086713286713287
7.8915530187482705, 0.0021594405594405593
8.183832760183392, 0.002243822843822844
8.476112501618513, 0.002322843822843823
8.768392243053635, 0.0024044289044289043
9.060671984488755, 0.002489277389277389
9.352951725923877, 0.0025715617715617715
9.645231467358999, 0.002658974358974359
9.937511208794119, 0.0027384615384615386
10.22979095022924, 0.002820745920745921
10.52207069166436, 0.0028995337995337996
10.814350433099483, 0.002982284382284382
11.106630174534603, 0.003064801864801865
11.398909915969725, 0.0031559440559440557
11.691189657404845, 0.003237062937062937
11.983469398839967, 0.0033158508158508157
12.275749140275089, 0.003395337995337995
12.568028881710209, 0.0034648018648018647
12.86030862314533, 0.0035456876456876458
13.15258836458045, 0.0036342657342657344
13.444868106015573, 0.0037104895104895104
13.737147847450693, 0.003785081585081585
14.029427588885815, 0.0038685314685314685
14.321707330320937, 0.00396037296037296
14.613987071756057, 0.004044289044289044
14.906266813191179, 0.00413030303030303
15.198546554626299, 0.0042151515151515155
15.490826296061421, 0.0043
15.783106037496541, 0.004388344988344988
16.07538577893166, 0.0044622377622377625
16.367665520366785, 0.004541025641025641
16.659945261801905, 0.004615617715617716
16.952225003237025, 0.004698135198135198
17.24450474467215, 0.004768764568764568
17.53678448610727, 0.0048531468531468535
17.82906422754239, 0.004918881118881119
18.12134396897751, 0.00498997668997669
18.413623710412633, 0.005061771561771562
18.705903451847753, 0.005121911421911422
18.998183193282873, 0.0051752913752913755
19.290462934717997, 0.005224242424242425
19.582742676153117, 0.005261072261072261
19.875022417588237, 0.005292773892773893
20.167302159023357, 0.005324708624708624
20.45958190045848, 0.005341724941724942
20.7518616418936, 0.0053652680652680656
21.04414138332872, 0.005375524475524475
21.336421124763845, 0.005389044289044289
21.628700866198965, 0.005385547785547786
21.920980607634085, 0.005386247086247086
22.213260349069206, 0.005394638694638695
22.50554009050433, 0.005393473193473193
22.79781983193945, 0.005397435897435897
23.09009957337457, 0.005397902097902098
23.38237931480969, 0.005404428904428904
23.674659056244813, 0.005413986013986014
23.966938797679934, 0.005408391608391608
24.259218539115054, 0.0054135198135198135
24.551498280550177, 0.005411188811188811
24.843778021985297, 0.00541048951048951
25.136057763420418, 0.0054158508158508156
25.428337504855538, 0.005410722610722611
25.72061724629066, 0.005414219114219114
26.01289698772578, 0.005421911421911422
26.3051767291609, 0.005424009324009324
26.597456470596025, 0.0054291375291375295
26.889736212031146, 0.005414452214452215
27.182015953466266, 0.005415617715617715
27.474295694901386, 0.005421212121212121
27.76657543633651, 0.005435198135198135
28.05885517777163, 0.005433799533799534
28.35113491920675, 0.005431934731934732
28.643414660641874, 0.005434965034965035
28.935694402076994, 0.005439393939393939
